%time,field.data
17734000000,0.273151718522
17830000000,0.305983514015
17930000000,0.306922839916
18030000000,0.320450772831
18132000000,0.333904310763
18230000000,0.356983993881
18330000000,0.378412484006
18432000000,0.420065005685
18530000000,0.436990504084
18630000000,0.47157080465
18730000000,0.505045247225
18830000000,0.516225367247
18932000000,0.502998076581
19030000000,0.490736159199
19130000000,0.439490401525
19230000000,0.414300893838
19330000000,0.34838360117
19430000000,0.264853551388
19530000000,0.192761494228
19636000000,0.160222817588
19730000000,0.121084279226
19830000000,0.0980661776622
19930000000,0.103597466006
20030000000,0.160460254419
20130000000,0.283858285339
20230000000,0.432681752702
20330000000,0.618817203257
20430000000,0.806271984062
20530000000,1.06036291148
20630000000,1.31487079906
20730000000,1.49728424542
20830000000,1.81349856156
20932000000,2.08566721981
21030000000,2.38777534509
21130000000,2.69482906323
21230000000,2.97082239059
21330000000,3.2543015692
21430000000,3.52649193317
21536000000,3.79693799414
21632000000,3.97986020347
21730000000,4.23132213304
21830000000,4.48425965811
21934000000,4.7036431061
22030000000,4.91915914784
22130000000,5.12872090341
22230000000,5.32852947936
22330000000,5.51983282886
22430000000,5.63723699778
22530000000,5.82375398432
22630000000,5.98880207645
22730000000,6.12816332347
22830000000,6.2836206763
22930000000,6.41553466516
23030000000,6.53470199147
23130000000,6.56907725021
23228000000,6.62923960399
23330000000,6.64079546154
23430000000,6.68192620493
23532000000,6.63868903066
23630000000,6.56270561825
23732000000,6.42610969716
23830000000,6.28020766603
23930000000,6.09688169411
24030000000,5.96401461477
24130000000,5.70797240403
24230000000,5.46371628471
24330000000,5.18300246119
24430000000,4.90868993814
24530000000,4.6017079083
24630000000,4.31333241577
24732000000,4.02492644637
24830000000,3.78553667307
24930000000,3.6058495565
25036000000,3.34097249056
25130000000,3.0868898679
25230000000,2.84970049984
25330000000,2.62367338886
25430000000,2.42146702375
25530000000,2.19581302988
25630000000,2.02259664697
25730000000,1.87026057151
25832000000,1.71882093932
25930000000,1.52468984226
26030000000,1.40424397552
26130000000,1.24074509042
26232000000,1.13734714026
26330000000,1.00644732263
26430000000,0.958776155209
26530000000,0.854216348117
26630000000,0.807379792158
26730000000,0.744646847172
26830000000,0.732880086912
26930000000,0.709299800539
27030000000,0.72308555883
27130000000,0.731116743956
27230000000,0.763524132267
27332000000,0.787426419322
27432000000,0.824281971928
27530000000,0.857255976407
27630000000,0.886551500001
27730000000,0.92164045583
27830000000,0.954995386966
27932000000,0.991540913626
28030000000,1.02234249176
28130000000,1.05997122524
28230000000,1.08205601549
28332000000,1.11613462985
28430000000,1.13456125588
28530000000,1.16458098042
28630000000,1.1812133302
28730000000,1.20472567055
28830000000,1.21727028373
28930000000,1.23739757184
29030000000,1.24070471496
29130000000,1.2551214149
29230000000,1.25959956209
29330000000,1.26947772717
29430000000,1.27104870325
29530000000,1.27758370317
29630000000,1.2715491219
29730000000,1.27443003227
29830000000,1.27063840707
29930000000,1.2722771001
30030000000,1.27433961865
30130000000,1.28635422623
30232000000,1.30399933978
30330000000,1.31976257442
30430000000,1.36463524738
30530000000,1.42731176685
30630000000,1.52288175982
30730000000,1.62865675454
30830000000,1.76793682026
30932000000,1.82177498742
31032000000,1.97586411099
31130000000,2.15255502872
31230000000,2.28155974238
31332000000,2.4817097084
31430000000,2.71994881862
31530000000,2.87608359488
31630000000,2.89097398851
31730000000,2.97785050923
31830000000,3.0592489488
31930000000,3.11207997281
32030000000,3.21861452658
32130000000,3.11677129544
32230000000,2.92589611673
32330000000,2.77643178573
32430000000,2.64760004072
32530000000,2.57336680328
32632000000,2.43210863004
32730000000,2.42708030848
32830000000,2.20413166181
32930000000,2.14205092027
33030000000,2.02198035967
33130000000,1.93805060678
33230000000,1.81068054929
33330000000,1.72796118836
33430000000,1.69553626493
33532000000,1.60451165107
33630000000,1.44559926937
33730000000,1.3758685279
33836000000,1.267594168
33930000000,1.20287140745
34030000000,1.1291286127
34130000000,1.11489213679
34230000000,1.05832076311
34330000000,1.02159476992
34430000000,0.989686427658
34530000000,0.978387322272
34630000000,0.972152196145
34728000000,0.982785991654
34830000000,1.00141086611
34932000000,1.03817139806
35030000000,1.06442322
35132000000,1.12735781441
35230000000,1.22353964747
35330000000,1.33071784014
35430000000,1.48026181272
35530000000,1.61566848482
35630000000,1.81983023417
35730000000,1.98484163631
35830000000,2.12554607289
35930000000,2.30630592622
36032000000,2.52195954688
36132000000,2.71167577884
36230000000,2.85981063748
36330000000,2.98461715909
36430000000,3.08135149815
36530000000,3.15815681349
36630000000,3.19481077826
36730000000,3.27875739546
36830000000,3.2263391913
36930000000,3.13587161154
37030000000,3.01000953559
37130000000,2.93771823412
37232000000,2.82969074788
37330000000,2.83454687504
37430000000,2.63048989392
37530000000,2.64558689931
37638000000,2.55621377133
37730000000,2.39371167856
37832000000,2.33024782297
37930000000,2.26124497032
38030000000,2.18298804054
38130000000,2.12880858835
38230000000,2.11536940495
38330000000,2.0676634338
38430000000,2.01552019412
38532000000,1.97743403441
38630000000,1.96452651412
38730000000,1.93673313391
38830000000,1.91483023405
38930000000,1.90262045957
39032000000,1.89362030436
39130000000,1.88439210788
39230000000,1.87758344247
39330000000,1.87662227199
39430000000,1.86772531803
39530000000,1.87253600311
39630000000,1.86735813907
39738000000,1.86931892253
39832000000,1.86948285079
39930000000,1.87452949989
40030000000,1.87364549
40130000000,1.87994742758
40230000000,1.87963996671
40330000000,1.88389582828
40432000000,1.88480687187
40530000000,1.88697704356
40630000000,1.89137064871
40730000000,1.89167731108
40830000000,1.89047718041
40930000000,1.89028460939
41030000000,1.88807674695
41130000000,1.8832994636
41230000000,1.87345524503
41332000000,1.86601574491
41430000000,1.86112078042
41530000000,1.84842717811
41630000000,1.83757222369
41732000000,1.82049829248
41830000000,1.80225081164
41930000000,1.78865088214
42032000000,1.76998208986
42132000000,1.76189630378
42230000000,1.74255352935
42328000000,1.71921172576
42430000000,1.69893852487
42534000000,1.67593037503
42630000000,1.65291026623
42734000000,1.63296309918
42830000000,1.61244124661
42930000000,1.58863249162
43030000000,1.56465513862
43130000000,1.54253910816
43232000000,1.53347535567
43330000000,1.50366241977
43430000000,1.48019012739
43532000000,1.45862709504
43634000000,1.44253575986
43730000000,1.42117806797
43832000000,1.39997821876
43930000000,1.37982145385
44030000000,1.37306710207
44132000000,1.34719698624
44232000000,1.33015445635
44330000000,1.30951961376
44430000000,1.29162295478
44530000000,1.27289269991
44630000000,1.25699932688
44730000000,1.23930218884
44830000000,1.22757448429
44930000000,1.21185216145
45030000000,1.19706044902
45130000000,1.18214072797
45230000000,1.16744324414
45330000000,1.15166518357
45430000000,1.13414682268
45530000000,1.12279141827
45630000000,1.10574231711
45730000000,1.0888003417
45830000000,1.07896928515
45930000000,1.07695788297
46038000000,1.08915979627
46130000000,1.09544693465
46230000000,1.15186219243
46332000000,1.21772040997
46430000000,1.33521451419
46530000000,1.4309635821
46630000000,1.57804615582
46730000000,1.720231582
46832000000,1.81493670715
46930000000,2.00930568265
47030000000,2.1660625097
47130000000,2.26941556268
47230000000,2.37566316027
47330000000,2.43334580458
47430000000,2.54800073041
47530000000,2.53788231168
47630000000,2.3362361841
47730000000,2.27292510113
47830000000,2.19395719154
47930000000,2.08927561412
48030000000,1.97842484504
48130000000,1.99557735404
48230000000,1.84514773669
48330000000,1.76078723292
48430000000,1.64229374844
48530000000,1.55915541601
48630000000,1.46868896785
48730000000,1.47201707915
48830000000,1.34850313929
48932000000,1.2802966495
49030000000,1.2159452313
49130000000,1.1645841619
49230000000,1.11428455383
49330000000,1.09283116517
49430000000,1.07675360435
49532000000,1.04679205392
49630000000,1.04071842302
49730000000,1.04463886599
49832000000,1.05069991419
49930000000,1.06684920665
50030000000,1.08453921494
50130000000,1.10809490142
50230000000,1.12555350811
50330000000,1.14588616428
50430000000,1.1881802034
50530000000,1.23567006072
50630000000,1.31282455422
50730000000,1.39836379403
50830000000,1.51126335323
50930000000,1.63276230729
51030000000,1.80114673118
51132000000,1.90703563193
51230000000,2.07541204155
51330000000,2.27032502345
51430000000,2.42863170033
51532000000,2.64513361497
51632000000,2.77422877058
51730000000,2.90297010623
51830000000,2.94385670267
51930000000,2.98431209386
52030000000,3.09141448322
52132000000,2.94977865387
52230000000,2.90431337481
52330000000,2.80292419791
52430000000,2.7300676362
52530000000,2.6325832622
52634000000,2.56551598173
52730000000,2.45657563923
52832000000,2.40631705576
52930000000,2.33734810082
53030000000,2.24570028896
53132000000,2.19960469175
53230000000,2.12878438698
53330000000,2.07025550745
53432000000,2.00977260161
53532000000,1.99580327257
53630000000,1.93100416842
53730000000,1.88143213388
53830000000,1.84333554073
53930000000,1.80280446939
54030000000,1.79559038066
54130000000,1.76366148672
54230000000,1.74608045958
54330000000,1.72481376189
54430000000,1.71330119544
54530000000,1.70016297245
54630000000,1.69677169045
54730000000,1.68651010208
54830000000,1.68714753106
54932000000,1.68210117976
55030000000,1.69067162478
55130000000,1.69271927074
55230000000,1.69814693412
55332000000,1.70003716566
55430000000,1.70469785248
55530000000,1.70353505643
55630000000,1.71423303515
55732000000,1.71724245934
55830000000,1.72236530491
55930000000,1.7207171775
56030000000,1.72730514568
56130000000,1.72322302694
56230000000,1.72887236934
56330000000,1.72149531914
56430000000,1.7260426055
56530000000,1.7215119228
56630000000,1.72146936113
56728000000,1.71320741345
56830000000,1.7170172572
56932000000,1.71042618427
57030000000,1.70889120447
57130000000,1.6934284833
57232000000,1.69594109997
57330000000,1.67201386808
57430000000,1.66436560092
57530000000,1.6463667376
57628000000,1.6441271023
57730000000,1.61664234028
57830000000,1.61262553384
57930000000,1.60014817929
58030000000,1.59788885414
58132000000,1.57264480026
58230000000,1.55942791829
58330000000,1.53896634591
58430000000,1.52898267356
58530000000,1.50850171237
58630000000,1.50622489377
58730000000,1.48477491127
58828000000,1.47613144259
58930000000,1.45091528637
59032000000,1.43263077501
59130000000,1.41110568996
59230000000,1.40110953179
59330000000,1.37594309261
59430000000,1.36688014321
59530000000,1.3505137338
59630000000,1.33486620029
59730000000,1.31581938998
59830000000,1.30547827961
59932000000,1.28531603563
60030000000,1.27464099154
60130000000,1.26636586426
60230000000,1.25380500314
60330000000,1.23828808406
60430000000,1.23147245089
60530000000,1.21263605938
60630000000,1.21147562254
60730000000,1.19915802409
60830000000,1.19042591678
60930000000,1.1763339617
61030000000,1.16958025043
61132000000,1.15622386568
61230000000,1.15152448572
61330000000,1.14383435119
61430000000,1.13934501166
61530000000,1.12636833408
61630000000,1.12297939991
61732000000,1.10981594521
61830000000,1.10221726962
61932000000,1.08660631858
62030000000,1.08093753976
62130000000,1.07416212521
62230000000,1.0738970663
62330000000,1.09944293435
62430000000,1.14476229983
62530000000,1.21671094111
62630000000,1.33460555236
62730000000,1.47606771273
62830000000,1.55048383361
62930000000,1.71881117329
63030000000,1.90819528788
63132000000,2.1335616271
63230000000,2.31746523845
63330000000,2.5893990256
63430000000,2.60861219889
63530000000,2.70756748443
63630000000,2.75554925407
63730000000,2.7531412596
63830000000,2.70813522551
63930000000,2.72135526945
64032000000,2.55852578114
64130000000,2.41323574001
64230000000,2.28186406131
64332000000,2.20073300646
64430000000,2.03738954573
64530000000,1.93619914046
64630000000,1.85125154038
64730000000,1.69051162958
64830000000,1.56042090043
64930000000,1.45157421873
65030000000,1.35790851763
65130000000,1.28153958902
65230000000,1.19644790205
65330000000,1.1336746101
65430000000,1.12057702813
65530000000,1.07052688936
65630000000,1.0436839756
65732000000,1.03312000008
65826000000,1.04063338247
65930000000,1.05473842001
66032000000,1.09146313123
66130000000,1.09430453851
66232000000,1.12830263947
66330000000,1.16795981056
66430000000,1.23565229657
66530000000,1.27996374453
66630000000,1.31362760641
66730000000,1.36674126471
66832000000,1.41982091484
66934000000,1.488553901
67032000000,1.56109980151
67130000000,1.62450816588
67230000000,1.74207801041
67330000000,1.83770351926
67430000000,1.98408881267
67530000000,2.13489328578
67630000000,2.30858721963
67730000000,2.49554951322
67830000000,2.69305968519
67932000000,2.81800922433
68030000000,3.02609335635
68132000000,3.03900719558
68230000000,3.12334239333
68330000000,3.17404683281
68430000000,3.16390351007
68530000000,3.24061131415
68630000000,3.23189445465
68732000000,3.1248354639
68830000000,2.98181254057
68930000000,2.92558057464
69032000000,2.82432412795
69130000000,2.72587975816
69230000000,2.6410712759
69330000000,2.62005592714
69430000000,2.51954656831
69532000000,2.43823530889
69630000000,2.34557184566
69730000000,2.23324185891
69830000000,2.1510969288
69932000000,2.08490181261
70030000000,2.06406839297
70130000000,1.98147994516
70230000000,1.96544706798
70330000000,1.92027056285
70430000000,1.8981487922
70530000000,1.87401198376
70630000000,1.86969906129
70730000000,1.86048259611
70830000000,1.86874758396
70930000000,1.86206870742
71030000000,1.87558495412
71130000000,1.88115270226
71230000000,1.89808264892
71330000000,1.90890324535
71430000000,1.93191143161
71530000000,1.94992439293
71630000000,1.96840865985
71730000000,1.97941910957
71828000000,1.99384884205
71932000000,2.00192695317
72030000000,2.01985318741
72130000000,2.025838695
72230000000,2.03749678457
72330000000,2.03940053261
72430000000,2.04824771102
72526000000,2.04885150083
72630000000,2.05639834909
72730000000,2.05083124988
72832000000,2.05418624861
72932000000,2.04185010111
73032000000,2.03715935589
73126000000,2.0234186895
73236000000,2.01429741196
73330000000,2.00310035532
73430000000,1.99450481631
73530000000,1.97010140961
73632000000,1.95326668229
73732000000,1.92563637687
73830000000,1.90852591431
73932000000,1.88063492035
74034000000,1.85472491988
74130000000,1.84136297099
74230000000,1.81676231892
74330000000,1.78780978472
74432000000,1.75549345948
74532000000,1.72587559544
74630000000,1.70589063137
74730000000,1.67458847377
74830000000,1.64498492575
74930000000,1.63365542085
75030000000,1.61013790822
75130000000,1.57891357059
75230000000,1.55315297502
75328000000,1.52346366282
75430000000,1.49514571494
75530000000,1.47030141534
75632000000,1.46070015888
75730000000,1.43509510178
75830000000,1.40798359233
75930000000,1.38857080217
76030000000,1.36028375052
76130000000,1.3372459472
76230000000,1.32412038562
76330000000,1.30440115879
76430000000,1.280404087
76530000000,1.26415912491
76632000000,1.24137026828
76730000000,1.22020956764
76830000000,1.20902290351
76930000000,1.19149467716
77032000000,1.17344426381
77130000000,1.15825881101
77230000000,1.14144220366
77330000000,1.12810870239
77430000000,1.11180451348
77530000000,1.09855924115
77630000000,1.08482385461
77730000000,1.06848842099
77830000000,1.04879310492
77930000000,1.04208093885
78030000000,1.03421122844
78130000000,1.04800504207
78230000000,1.08525641744
78330000000,1.15588817015
78430000000,1.23408236865
78532000000,1.36107983934
78632000000,1.5002538568
78730000000,1.56283016931
78832000000,1.73217489355
78930000000,1.95285027794
79030000000,2.08064602183
79130000000,2.23016683642
79232000000,2.21351786311
79330000000,2.27805133837
79432000000,2.32921670461
79534000000,2.40673506008
79630000000,2.33256208458
79730000000,2.26893852225
79830000000,2.18428373859
79928000000,2.061912725
80030000000,1.8830644733
80128000000,1.86215410062
80230000000,1.78493398727
80330000000,1.68182546274
80430000000,1.59699030914
80530000000,1.52458708163
80630000000,1.38004637621
80730000000,1.32144377307
80834000000,1.26009663411
80930000000,1.26447709494
81030000000,1.19478334089
81130000000,1.16574176002
81230000000,1.11074202923
81330000000,1.09717450492
81430000000,1.07229876575
81530000000,1.06676891005
81630000000,1.05297107952
81730000000,1.07196226099
81830000000,1.07010793878
81932000000,1.10269127017
82032000000,1.12001432272
82130000000,1.13339235606
82230000000,1.13569832237
82330000000,1.17208917427
82430000000,1.18619213538
82532000000,1.2150617852
82630000000,1.24688081268
82730000000,1.31562652628
82830000000,1.33454160908
82930000000,1.42620648262
83030000000,1.51400885293
83130000000,1.65643696678
83230000000,1.80149540744
83330000000,1.96224221638
83430000000,2.05910928818
83532000000,2.23145416913
83630000000,2.48766585558
83730000000,2.57451327116
83830000000,2.688583101
83930000000,2.88925148732
84030000000,2.98087428704
84130000000,2.98842532216
84230000000,2.95899922372
84330000000,2.85695084668
84430000000,2.76247055061
84530000000,2.58948037632
84630000000,2.49856627726
84732000000,2.45115550411
84830000000,2.40582326516
84930000000,2.29451543586
85030000000,2.22678869163
85132000000,2.10718111559
85230000000,2.0720047259
85330000000,2.03242972733
85430000000,2.01424834408
85532000000,1.93973106547
85632000000,1.90369518947
85730000000,1.84128970018
85832000000,1.806708879
85930000000,1.77569708512
86032000000,1.77158397152
86134000000,1.73573090745
86230000000,1.72052690419
86330000000,1.69771684476
86430000000,1.69125971911
86530000000,1.67759762825
86630000000,1.67600913213
86730000000,1.67127938382
86830000000,1.6669131455
86930000000,1.665715792
87030000000,1.67508492419
87130000000,1.674819552
87232000000,1.67922119363
87330000000,1.68102823968
87430000000,1.68770066442
87530000000,1.692456821
87636000000,1.70129039991
87732000000,1.70540833897
87830000000,1.69988364316
87930000000,1.709149
88030000000,1.71086473084
88130000000,1.7088192356
88230000000,1.70699695516
88330000000,1.70516688009
88430000000,1.70328428637
88530000000,1.69881219428
88630000000,1.69646688707
88730000000,1.69560418567
88830000000,1.69034818301
88930000000,1.68685044618
89030000000,1.67787339507
89130000000,1.67406586752
89232000000,1.66660123276
89330000000,1.66193518224
89430000000,1.65428124784
89530000000,1.64754631004
89632000000,1.64107106964
89734000000,1.62949668333
89830000000,1.62857979928
89930000000,1.62030475923
90030000000,1.60837328374
90132000000,1.59725792202
90230000000,1.58588449077
90330000000,1.57434185782
90430000000,1.56113380338
90530000000,1.54282757365
90630000000,1.53803129476
90736000000,1.52363102406
90830000000,1.50959150206
90930000000,1.49361487884
91030000000,1.48014991022
91130000000,1.4644726324
91232000000,1.44957756592
91332000000,1.43113770329
91430000000,1.41184013471
91530000000,1.40334185884
91630000000,1.38684695068
91730000000,1.36977319728
91830000000,1.35018870994
91930000000,1.33508634966
92030000000,1.31958840134
92130000000,1.30472430608
92230000000,1.2844244977
92330000000,1.26841518084
92430000000,1.26065123007
92530000000,1.24551256309
92628000000,1.23187894568
92730000000,1.21886259742
92830000000,1.20246486018
92930000000,1.19256875895
93030000000,1.17908669223
93130000000,1.16881504082
93230000000,1.15745100543
93330000000,1.15130345347
93430000000,1.13693809587
93530000000,1.1213722148
93630000000,1.10608134455
93730000000,1.09761879528
93830000000,1.09918208787
93930000000,1.11074308716
94030000000,1.13622866811
94130000000,1.16139791781
94230000000,1.22059172723
94330000000,1.30530337703
94432000000,1.43070390292
94530000000,1.59665227882
94632000000,1.75990103187
